,Temp,Field,Moment_emu,Moment_emu_g
0,5.00210285186768,0.0100035980224609,0.0046662448852287,1.9442687021786254
1,5.57325196266174,0.0100035980224609,0.0046898285207595,1.9540952169831252
2,6.30741834640503,0.0100035980224609,0.0047286277137495,1.970261547395625
3,7.06033945083618,0.0100035980224609,0.0047785403265532,1.9910584693971667
4,7.81649446487427,0.0100035980224609,0.00483364567226,2.014019030108334
5,8.55950021743774,0.0100035980224609,0.0048929762757211,2.0387401148837916
6,9.32577133178711,0.0100035980224609,0.0049554489705722,2.0647704044050834
7,10.0807342529297,0.0100035980224609,0.0050216693491718,2.0923622288215835
8,10.8485841751099,0.0100035980224609,0.0050908818306059,2.1212007627524585
9,11.6019849777222,0.0100035980224609,0.0051635576537072,2.151482355711334
10,12.3492317199707,0.0100035980224609,0.0052398250418438,2.1832604341015838
11,13.1159858703613,0.0100035980224609,0.0053199637186321,2.2166515494300416
12,13.9000415802002,0.0100035980224609,0.005404077387117,2.2516989112987504
13,15.3440456390381,0.0100035980224609,0.005574274437529,2.3226143489704167
14,16.1795387268066,0.0100035980224609,0.0056719320667142,2.363305027797584
15,16.9888439178467,0.0100035980224609,0.0057731571987395,2.4054821661414585
16,17.7421474456787,0.0100035980224609,0.0058727807658897,2.446991985787375
17,18.507511138916,0.0100035980224609,0.0059723712359834,2.4884880149930835
18,19.2939767837524,0.0100035980224609,0.0060711560724219,2.5296483635091254
19,20.062780380249,0.0100035980224609,0.0061689422699207,2.5703926124669585
20,20.8457221984863,0.0100035980224609,0.0062659382370588,2.6108075987745
21,21.631085395813,0.0100035980224609,0.0063625603937277,2.6510668307198753
22,22.386775970459,0.0100035980224609,0.0064583382858565,2.690974285773542
23,23.1615657806396,0.0100035980224609,0.0065542501888132,2.7309375786721666
24,24.6333618164062,0.0100035980224609,0.0067366412301453,2.8069338458938753
25,25.4092330932617,0.0100035980224609,0.0068349192049608,2.8478830020670003
26,26.1772089004517,0.0100035980224609,0.0069349102710467,2.8895459462694584
27,26.9601154327393,0.0100035980224609,0.0070356822163292,2.9315342568038334
28,27.7297954559326,0.0100035980224609,0.0071387513215132,2.974479717297167
29,28.5118379592896,0.0100035980224609,0.0072439558339365,3.0183149308068753
30,29.2748079299927,0.0100035980224609,0.0073515269911293,3.063136246303875
31,30.0525093078613,0.0100035980224609,0.0074622687180747,3.109278632531125
32,30.8356170654297,0.0100035980224609,0.0075802837382243,3.158451557593459
33,32.3465566635132,0.0100035980224609,0.0078014138304262,3.250589096010917
34,33.126184463501,0.0100035980224609,0.0079216322387781,3.300680099490875
35,33.8984451293945,0.0100035980224609,0.0080446355556139,3.351931481505792
36,34.6886501312256,0.0100035980224609,0.0081710379537345,3.4045991473893755
37,35.4657649993897,0.0100035980224609,0.0082983236654277,3.4576348605948755
38,36.2346801757812,0.0100035980224609,0.0084273746101959,3.5114060875816255
39,37.0301532745361,0.0100035980224609,0.0085594653545128,3.566443897713667
40,37.8140449523926,0.0100035980224609,0.0086928974858807,3.6220406191169587
41,39.2822666168213,0.0100035980224609,0.0089470107585051,3.7279211493771256
42,40.06396484375,0.0100035980224609,0.0090830675739685,3.784611489153542
43,40.8347797393799,0.0100035980224609,0.0092205606217259,3.841900259052459
44,41.6163883209229,0.0100035980224609,0.009357792189134,3.899080078805834
45,42.4092559814453,0.0100035980224609,0.0094954310750473,3.956429614603042
46,43.1747360229492,0.0100035980224609,0.0096335795686713,4.0139914869463755
47,43.9961833953857,0.0100035980224609,0.0097785274183358,4.074386424306584
48,45.5124359130859,0.0100035980224609,0.0100365888095949,4.181912003997875
49,46.2931365966797,0.0100035980224609,0.0101731618135674,4.23881742231975
50,47.0728645324707,0.0100035980224609,0.0103080662882816,4.295027620117334
51,47.862247467041,0.0100035980224609,0.0104409551896266,4.35039799567775
52,48.648494720459,0.0100035980224609,0.0105720829830757,4.405034576281542
53,49.4191398620605,0.0100035980224609,0.0107014639519141,4.458943313297541
54,50.9277191162109,0.0100035980224609,0.010941750606046,4.559062752519167
55,51.7054977416992,0.0100035980224609,0.0110656323336752,4.6106801390313334
56,52.4956436157227,0.0100035980224609,0.0111875027281092,4.6614594700455
57,53.281307220459,0.0100035980224609,0.0113065414909382,4.711058954557584
58,54.0786380767822,0.0100035980224609,0.0114233747133038,4.759739463876584
59,54.8740997314453,0.0100035980224609,0.0115380698390237,4.807529099593208
60,56.3391017913818,0.0100035980224609,0.0117466079446057,4.894419976919042
61,57.1220779418945,0.0100035980224609,0.0118534189908535,4.938924579522292
62,57.9327011108398,0.0100035980224609,0.0119566826893151,4.981951120547959
63,58.7035007476807,0.0100035980224609,0.0120572319752155,5.023846656339792
64,59.5023422241211,0.0100035980224609,0.0121555275690317,5.064803153763209
65,61.0022869110107,0.0100035980224609,0.0123325127810945,5.138546992122709
66,62.1880855560303,0.0100035980224609,0.01250996129898,5.212483874575001
67,63.3416748046875,0.0100035980224609,0.0125937676615086,5.24740319229525
68,64.1214122772217,0.0100035980224609,0.0126753602903771,5.281400120990458
69,66.0216484069824,0.0100035980224609,0.0128908754774655,5.371198115610626
70,67.1882095336914,0.0100035980224609,0.012960635058909,5.400264607878751
71,67.9840888977051,0.0100035980224609,0.0130285227957611,5.428551164900459
72,69.8673400878906,0.0100035980224609,0.0132065850490412,5.502743770433834
73,71.0422019958496,0.0100035980224609,0.0132642394513254,5.52676643805225
74,71.8242797851562,0.0100035980224609,0.0133191686514929,5.549653604788709
75,73.7073364257812,0.0100035980224609,0.013464765551612,5.6103189798383335
76,74.8864440917969,0.0100035980224609,0.0135122260103252,5.6300941709688335
77,75.6901931762695,0.0100035980224609,0.0135567389410086,5.64864122542025
78,77.6187858581543,0.0100035980224609,0.0136733537287103,5.697230720295959
79,78.7717895507812,0.0100035980224609,0.0137108544983946,5.7128560409977505
80,79.5562210083008,0.0100035980224609,0.0137466359966834,5.727764998618084
81,81.4549980163574,0.0100035980224609,0.0138391769162962,5.766323715123417
82,82.6162719726563,0.0100035980224609,0.0138688820750793,5.7787008646163756
83,83.4114646911621,0.0100035980224609,0.0138975038051535,5.790626585480625
84,85.3165092468262,0.0100035980224609,0.0139707658351925,5.8211524313302085
85,86.4903793334961,0.0100035980224609,0.0139940688603316,5.830862025138167
86,87.3118057250977,0.0100035980224609,0.0140159273631251,5.839969734635459
87,89.2415733337402,0.0100035980224609,0.0140734192548641,5.863924689526709
88,90.4556045532227,0.0100035980224609,0.0140915008335276,5.871458680636501
89,92.3672485351562,0.0100035980224609,0.0141380950672958,5.890872944706584
90,93.5919075012207,0.0100035980224609,0.0141527095904758,5.896962329364917
91,95.5156097412109,0.0100035980224609,0.014191659470948,5.913191446228334
92,96.7183227539063,0.0100035980224609,0.0142036820930683,5.918200872111792
93,98.6753005981445,0.0100035980224609,0.014234986755977,5.9312444816570835
94,99.8488235473633,0.0100035980224609,0.0142452030601597,5.935501275066542
95,101.757461547852,0.0100035980224609,0.0142715121980955,5.946463415873126
96,102.945869445801,0.0100035980224609,0.0142798597319896,5.949941554995667
97,104.888538360596,0.0100035980224609,0.0143028333365746,5.959513890239418
98,106.085536956787,0.0100035980224609,0.0143103698076423,5.962654086517626
99,108.032661437988,0.0100035980224609,0.014330026204356,5.9708442518150004
100,110.342628479004,0.0100035980224609,0.0143483334329697,5.978472263737375
101,112.647602081299,0.0100035980224609,0.0143644088897381,5.985170370724209
102,114.980430603027,0.0100035980224609,0.0143798663170287,5.991610965428626
103,117.275363922119,0.0100035980224609,0.0143940957159596,5.997539881649834
104,119.582134246826,0.0100035980224609,0.0144070770285448,6.002948761893667
105,121.903221130371,0.0100035980224609,0.0144182549530718,6.0076062304465845
106,124.2165184021,0.0100035980224609,0.0144279602529349,6.011650105389543
107,126.54536819458,0.0100035980224609,0.0144357906628336,6.014912776180667
108,128.841484069824,0.0100035980224609,0.0144414917857572,6.0172882440655
109,131.160606384277,0.0100035980224609,0.0144455772362176,6.0189905150906675
110,133.498756408691,0.0100035980224609,0.0144471787287767,6.019657803656959
111,135.818214416504,0.0100035980224609,0.014446223239261,6.019259683025417
112,138.142524719238,0.0100035980224609,0.0144429534217997,6.01789725908321
113,140.456596374512,0.0100035980224609,0.0144369389858216,6.015391244092334
114,142.752853393555,0.0100035980224609,0.0144286455514,6.011935646416667
115,145.089797973633,0.0100035980224609,0.0144172070098987,6.007169587457792
116,147.385986328125,0.0100035980224609,0.0144031072221458,6.0012946758940835
117,149.713737487793,0.0100035980224609,0.0143861899065395,5.994245794391459
118,152.062065124512,0.0100035980224609,0.0143668085622404,5.986170234266834
119,154.36742401123,0.0100035980224609,0.0143447020636388,5.976959193182834
120,156.654808044434,0.0100035980224609,0.0143198231493769,5.966592978907042
121,159.023918151855,0.0100035980224609,0.0142929146973463,5.955381123894292
122,161.347023010254,0.0100035980224609,0.0142635967080821,5.943165295034209
123,163.675628662109,0.0100035980224609,0.0142319780604542,5.929990858522584
124,165.981895446777,0.0100035980224609,0.014198015947274,5.915839978030834
125,168.321350097656,0.0100035980224609,0.0141613959787028,5.900581657792833
126,170.659912109375,0.0100035980224609,0.0141237623461703,5.884900977570959
127,172.968727111816,0.0100035980224609,0.0140842301005966,5.868429208581917
128,175.273513793945,0.0100035980224609,0.0140426905775554,5.851121073981417
129,177.637351989746,0.0100035980224609,0.0139992715065483,5.8330297943951255
130,179.970375061035,0.0100035980224609,0.0139545390880726,5.814391286696917
131,182.282669067383,0.0100035980224609,0.0139083726948783,5.795155289532626
132,184.61547088623,0.0100035980224609,0.0138612147846078,5.775506160253251
133,186.902381896973,0.0100035980224609,0.0138122657760059,5.7551107400024595
134,189.236236572266,0.0100035980224609,0.0137622459716363,5.734269154848459
135,191.558700561523,0.0100035980224609,0.0137112713701685,5.713029737570209
136,193.876922607422,0.0100035980224609,0.0136588362976797,5.691181790699875
137,196.189071655273,0.0100035980224609,0.0136058824701014,5.669117695875584
138,198.500038146973,0.0100035980224609,0.0135519663207589,5.646652633649542
139,200.832786560059,0.0100035980224609,0.013497315245606,5.623881352335834
140,203.155776977539,0.0100035980224609,0.0134417319232111,5.6007216346712925
141,205.547653198242,0.0100035980224609,0.0133853136469923,5.577214019580126
142,207.830207824707,0.0100035980224609,0.0133273750937447,5.553072955726959
143,210.127174377441,0.0100035980224609,0.0132696955292761,5.529039803865042
144,212.428291320801,0.0100035980224609,0.0132111935457112,5.504663977379667
145,214.808349609375,0.0100035980224609,0.0131525153196208,5.480214716508668
146,217.132614135742,0.0100035980224609,0.0130921214325943,5.455050596914292
147,219.43391418457,0.0100035980224609,0.0130321408718218,5.430058696592417
148,221.644973754883,0.0100035980224609,0.0129739374279,5.405807261625
149,223.932548522949,0.0100035980224609,0.0129135912204802,5.380663008533418
150,226.250595092773,0.0100035980224609,0.012851913355286,5.354963898035834
151,228.59056854248,0.0100035980224609,0.012789975305753,5.329156377397084
152,230.907577514648,0.0100035980224609,0.0127281567862875,5.303398660953126
153,233.226409912109,0.0100035980224609,0.0126662684694164,5.277611862256833
154,235.548545837402,0.0100035980224609,0.0126037763421374,5.251573475890584
155,237.459266662598,0.0100035980224609,0.0125587740714903,5.232822529787625
156,238.993026733398,0.0100035980224609,0.0125179840980771,5.215826707532125
157,240.506874084473,0.0100035980224609,0.0124768011091414,5.198667128808917
158,242.00968170166,0.0100035980224609,0.012435287300216,5.181369708423333
159,243.519828796387,0.0100035980224609,0.0123940274508611,5.164178104525459
160,245.045280456543,0.0100035980224609,0.0123525814335276,5.146908930636501
161,246.5673828125,0.0100035980224609,0.012310681843916,5.129450768298334
162,248.096343994141,0.0100035980224609,0.012269041163825,5.112100484927084
163,249.607551574707,0.0100035980224609,0.0122274670608303,5.094777942012625
164,251.177749633789,0.0100035980224609,0.0121855888016991,5.077328667374625
165,252.713012695313,0.0100035980224609,0.0121431936022422,5.059664000934251
166,254.258758544922,0.0100035980224609,0.0121005807736664,5.041908655694334
167,255.7900390625,0.0100035980224609,0.0120582725229402,5.02428021789175
168,257.344100952148,0.0100035980224609,0.012015930319345,5.006637633060417
169,258.859436035156,0.0100035980224609,0.0119739759096374,4.989156629015584
170,260.376266479492,0.0100035980224609,0.0119321486151152,4.971728589631334
171,261.905426025391,0.0100035980224609,0.0118903504010471,4.9543126671029585
172,263.411361694336,0.0100035980224609,0.0118487607194063,4.9369836330859584
173,264.976348876953,0.0100035980224609,0.0118067786106914,4.919491087788084
174,266.46907043457,0.0100035980224609,0.0117649775994001,4.902073999750042
175,267.994689941406,0.0100035980224609,0.0117230115430906,4.884588142954417
176,269.51904296875,0.0100035980224609,0.011681305489957,4.867210620815417
177,271.064819335938,0.0100035980224609,0.0116394855068906,4.849785627871084
178,272.560363769531,0.0100035980224609,0.0115976608896881,4.832358704036709
179,274.105743408203,0.0100035980224609,0.0115560572321909,4.815023846746208
180,275.629867553711,0.0100035980224609,0.0115145136715536,4.797714029814
181,277.138153076172,0.0100035980224609,0.0114726084333828,4.780253513909501
182,278.685272216797,0.0100035980224609,0.0114311014312168,4.762958929673667
183,280.203338623047,0.0100035980224609,0.011389345616632,4.745560673596667
184,281.725326538086,0.0100035980224609,0.0113472754402797,4.728031433449876
185,283.254135131836,0.0100035980224609,0.0113051123025166,4.710463459381917
186,284.755447387695,0.0100035980224609,0.0112631070193631,4.6929612580679585
187,286.291549682617,0.0100035980224609,0.0112207185520224,4.675299396676
188,287.847015380859,0.0100035980224609,0.0111781345090006,4.657556045416917
189,289.347091674805,0.0100035980224609,0.0111354168881062,4.639757036710917
190,290.879852294922,0.0100035980224609,0.0110923680863387,4.621820035974459
191,292.388381958008,0.0100035980224609,0.011049791328205,4.604079720085417
192,293.928619384766,0.0100035980224609,0.0110068244632296,4.586176859679001
193,295.452575683594,0.0100035980224609,0.0109638049835753,4.568252076489709
194,296.966491699219,0.0100035980224609,0.0109208888324407,4.550370346850292
195,298.446304321289,0.0100035980224609,0.0108774532877442,4.532272203226751
196,299.294021606445,0.0100035980224609,0.0108497720916284,4.520738371511833
197,299.51203918457,0.0100035980224609,0.010841864218136,4.517443424223334
198,299.655975341797,0.0100035980224609,0.010836615777736,4.515256574056667
199,299.750061035156,0.0100035980224609,0.0108327921175789,4.513663382324542
200,299.812057495117,0.0100035980224609,0.010829980943491,4.512492059787917
201,299.85856628418,0.0100035980224609,0.010827895520777,4.511623133657084
202,299.891860961914,0.0100035980224609,0.0108267110076934,4.511129586538917
203,299.9169921875,0.0100035980224609,0.0108255968040188,4.510665335007833
204,299.935348510742,0.0100035980224609,0.0108245577808467,4.510232408686125
205,5.00203275680542,0.0100035980224609,0.0140837388603613,5.868224525150542
206,5.57767415046692,0.0100035980224609,0.0140821774812363,5.867573950515125
207,6.30700159072876,0.0100035980224609,0.0140815953959183,5.8673314149659594
208,7.05357980728149,0.0100035980224609,0.0140810578658979,5.867107444124125
209,7.78789663314819,0.0100035980224609,0.0140805621390942,5.866900891289251
210,8.55300140380859,0.0100035980224609,0.0140809144147007,5.867047672791959
211,9.31373834609985,0.0100035980224609,0.0140822007511825,5.867583646326042
212,10.0663590431213,0.0100035980224609,0.0140813928331298,5.867247013804084
213,10.8436369895935,0.0100035980224609,0.0140802611655685,5.866775485653542
214,11.6071729660034,0.0100035980224609,0.0140804237754196,5.866843239758167
215,12.3741698265076,0.0100035980224609,0.014081265553693,5.867193980705418
216,13.1309466362,0.0100035980224609,0.0140815342425959,5.867305934414959
217,14.9873938560486,0.0100035980224609,0.0140819260612575,5.867469192190626
218,16.1550936698914,0.0100035980224609,0.0140830267829323,5.867927826221792
219,16.9497137069702,0.0100035980224609,0.0140801792039383,5.866741334974292
220,17.7301568984985,0.0100035980224609,0.0140805867710934,5.86691115462225
221,18.4992704391479,0.0100035980224609,0.014081737660541,5.867390691892084
222,19.2735462188721,0.0100035980224609,0.0140842237290873,5.868426553786376
223,20.0437669754028,0.0100035980224609,0.0140821956291382,5.867581512140918
224,20.8422784805298,0.0100035980224609,0.0140816559060664,5.867356627527667
225,21.6013898849487,0.0100035980224609,0.0140836770722191,5.8681987800912925
226,22.3883724212646,0.0100035980224609,0.0140823741437916,5.867655893246501
227,24.2527570724487,0.0100035980224609,0.014083313615457,5.86804733977375
228,25.4014930725098,0.0100035980224609,0.0140839590874313,5.8683162864297085
229,26.1914253234863,0.0100035980224609,0.0140844842132766,5.868535088865251
230,26.9595680236816,0.0100035980224609,0.0140850661285679,5.8687775535699584
231,27.7353849411011,0.0100035980224609,0.0140856932067833,5.869038836159709
232,28.5257062911987,0.0100035980224609,0.0140861697896303,5.869237412345958
233,29.3084506988525,0.0100035980224609,0.0140866743273107,5.8694476363794585
234,30.062840461731,0.0100035980224609,0.0140871701474699,5.869654228112459
235,30.8422212600708,0.0100035980224609,0.0140877636893753,5.869901537239708
236,32.7134733200073,0.0100035980224609,0.0140895742829093,5.870655951212209
237,33.865743637085,0.0100035980224609,0.0140905355127237,5.871056463634876
238,34.607873916626,0.0100035980224609,0.0140911618097925,5.871317420746876
239,35.3803806304932,0.0100035980224609,0.0140918755865439,5.871614827726626
240,36.1826648712158,0.0100035980224609,0.0140926109039232,5.871921209968001
241,36.9713821411133,0.0100035980224609,0.0140935208392133,5.872300349672209
242,37.7702732086182,0.0100035980224609,0.0140943663516905,5.872652646537709
243,39.6581554412842,0.0100035980224609,0.0140966579518952,5.873607479956334
244,40.8196182250977,0.0100035980224609,0.0140977139511693,5.874047479653875
245,41.6107749938965,0.0100035980224609,0.0140987833523602,5.874493063483417
246,42.3846569061279,0.0100035980224609,0.0140996203614304,5.874841817262667
247,43.1774044036865,0.0100035980224609,0.0141006862969754,5.875285957073084
248,43.9567890167236,0.0100035980224609,0.0141017383813475,5.875724325561459
249,45.8244686126709,0.0100035980224609,0.014104933066697,5.877055444457084
250,46.9781017303467,0.0100035980224609,0.0141062344605388,5.877597691891167
251,47.7788181304932,0.0100035980224609,0.0141076027725916,5.878167821913167
252,48.5797672271729,0.0100035980224609,0.0141089324678087,5.878721861586959
253,49.3450813293457,0.0100035980224609,0.0141101505575489,5.879229398978708
254,51.2392883300781,0.0100035980224609,0.0141141969251269,5.8809153854695415
255,52.4121379852295,0.0100035980224609,0.0141158710777013,5.881612949042209
256,53.1695766448975,0.0100035980224609,0.0141174189235188,5.8822578847995
257,53.9772720336914,0.0100035980224609,0.0141192632414888,5.883026350620334
258,54.7628993988037,0.0100035980224609,0.0141209811485974,5.883742145248917
259,56.636791229248,0.0100035980224609,0.0141264168343674,5.886007014319751
260,57.8144588470459,0.0100035980224609,0.0141286068186841,5.886919507785042
