,Temp,Field,Moment_emu,Moment_emu_g
0,5.00303506851196,0.009997486877441411,0.0003884683480287,5.570237281742185
1,5.52256751060486,0.009997486877441411,0.0003907131151881,5.60242493817178
2,6.32247400283814,0.009997486877441411,0.0003997633011059,5.732195312674218
3,7.09916853904724,0.009997486877441411,0.0004143540956173,5.941412326029538
4,7.88612675666809,0.009997486877441411,0.0004309697550969,6.179663824159736
5,8.68256807327271,0.009997486877441411,0.0004487986473169,6.435311834197017
6,9.4725079536438,0.009997486877441411,0.0004678252621588,6.708133956965872
7,10.2751317024231,0.009997486877441411,0.0004878856647598,6.995779534840837
8,11.0791864395142,0.009997486877441411,0.0005086537622052,7.293572730215083
9,11.8585729598999,0.009997486877441411,0.0005300560192195,7.600459122734442
10,12.677520275116,0.009997486877441411,0.0005523597981837,7.920272414449383
11,13.4727663993835,0.009997486877441411,0.0005751485024545,8.247039037202466
12,14.9733672142029,0.009997486877441411,0.0006186234333088,8.870424911224546
13,15.844042301178,0.009997486877441411,0.0006431642610758,9.22231518605965
14,16.6871309280396,0.009997486877441411,0.0006683771253712,9.583841774751935
15,17.5011901855469,0.009997486877441411,0.0006931823528143,9.939523269490966
16,18.3041210174561,0.009997486877441411,0.000717544280819,10.288848305405791
17,19.1349020004272,0.009997486877441411,0.0007420699675781,10.640521473732434
18,19.9545097351074,0.009997486877441411,0.0007662432265327,10.987141189169773
19,20.7785396575928,0.009997486877441411,0.0007903802952157,11.333241973267851
20,21.5764989852905,0.009997486877441411,0.0008140600430767,11.672785246296241
21,22.4027061462402,0.009997486877441411,0.0008373261311035,12.00639706199455
22,23.8690204620361,0.009997486877441411,0.000879034007816,12.604445193805562
23,24.7217655181885,0.009997486877441411,0.0009012108378037,12.922438167532261
24,25.5368518829346,0.009997486877441411,0.0009229524158525,13.234190075315457
25,26.3384923934937,0.009997486877441411,0.0009442261720502,13.539233898052766
26,27.1574363708496,0.009997486877441411,0.0009647942445221,13.83415894066676
27,27.9948587417603,0.009997486877441411,0.0009850432196594,14.124508455110409
28,28.791389465332,0.009997486877441411,0.0010047116886991,14.406534108102953
29,29.6216268539429,0.009997486877441411,0.0010235947432013,14.677297722989675
30,30.437255859375,0.009997486877441411,0.0010419697938239,14.940777083795526
31,31.9371118545532,0.009997486877441411,0.0010743783024357,15.405481824429307
32,32.7784366607666,0.009997486877441411,0.0010910622826935,15.644712972375967
33,33.5320358276367,0.009997486877441411,0.0011063579178923,15.864036677549468
34,34.3049736022949,0.009997486877441411,0.0011210677222615,16.07496017008173
35,35.0891647338867,0.009997486877441411,0.0011352822121303,16.278781361203038
36,35.8595809936523,0.009997486877441411,0.0011488289982776,16.473028366469745
37,36.66139793396,0.009997486877441411,0.0011617961959603,16.658964668200458
38,37.4431228637695,0.009997486877441411,0.0011741215233461,16.835697208862918
39,38.9097938537598,0.009997486877441411,0.0011962076763299,17.152389967449096
40,39.7306022644043,0.009997486877441411,0.0012068476097292,17.304955688689414
41,40.5223636627197,0.009997486877441411,0.0012169515921955,17.449836423795524
42,41.3050518035889,0.009997486877441411,0.0012264778693225,17.586433457449093
43,42.1020526885986,0.009997486877441411,0.0012355026181188,17.715839089744765
44,42.8650417327881,0.009997486877441411,0.0012439163297657,17.83648307665185
45,43.6540870666504,0.009997486877441411,0.0012518303906071,17.9499625839848
46,45.1479167938232,0.009997486877441411,0.0012655919922207,18.147289822493548
47,45.9374866485596,0.009997486877441411,0.0012719893197491,18.23902093130341
48,46.7350997924805,0.009997486877441411,0.0012779219705405,18.32408905277459
49,47.5062885284424,0.009997486877441411,0.0012834232363982,18.402971557186692
50,48.3000640869141,0.009997486877441411,0.0012884544746007,18.47511434758675
51,49.0893878936768,0.009997486877441411,0.0012930919504214,18.54161098969601
52,50.581672668457,0.009997486877441411,0.001300711598679,18.650868922841983
53,51.4041481018066,0.009997486877441411,0.0013041514550149,18.7001929310998
54,52.2336254119873,0.009997486877441411,0.0013072816298614,18.745076424740464
55,53.0307178497314,0.009997486877441411,0.0013099171020541,18.782866390222253
56,53.8104705810547,0.009997486877441411,0.0013121725580503,18.815207313597647
57,55.3351097106934,0.009997486877441411,0.00131565525723,18.86514564425007
58,56.1769618988037,0.009997486877441411,0.0013169702616637,18.884001457753083
59,56.9482707977295,0.009997486877441411,0.0013179946706513,18.898690430904786
60,57.7346878051758,0.009997486877441411,0.0013187311932151,18.9092514083037
61,58.5165748596191,0.009997486877441411,0.0013191893720458,18.91582122233725
62,60.0231857299805,0.009997486877441411,0.0013193555903644,18.91820462237453
63,60.8309020996094,0.009997486877441411,0.0013190563982622,18.913914514800688
64,61.62255859375,0.009997486877441411,0.0013185587032783,18.906778079700313
65,62.4474678039551,0.009997486877441411,0.0013178229227271,18.896227742000285
66,63.2434120178223,0.009997486877441411,0.0013168888150055,18.882833596293374
67,64.7754020690918,0.009997486877441411,0.0013145992595364,18.850003721485518
68,65.5934295654297,0.009997486877441411,0.0013130800844466,18.82822031039002
69,66.4147529602051,0.009997486877441411,0.0013113921452843,18.804016995759962
70,67.2083053588867,0.009997486877441411,0.0013095781642657,18.77800637031402
71,68.6284255981445,0.009997486877441411,0.0013059334189084,18.725744463842844
72,69.4441909790039,0.009997486877441411,0.0013036999681319,18.693719072725838
73,70.21533203125,0.009997486877441411,0.0013013797927093,18.660450139221393
74,71.0330429077148,0.009997486877441411,0.001298855045197,18.624247851978776
75,72.5268478393555,0.009997486877441411,0.0012939305469481,18.553635602926583
76,73.3411178588867,0.009997486877441411,0.0012911163710737,18.51328321011901
77,74.1326904296875,0.009997486877441411,0.0012882102658703,18.47161264511471
78,74.9464683532715,0.009997486877441411,0.0012852499403117,18.42916461588328
79,76.3956985473633,0.009997486877441411,0.001279625529082,18.348516333266417
80,77.2133941650391,0.009997486877441411,0.0012763641402224,18.301751365391453
81,77.985034942627,0.009997486877441411,0.0012731052848842,18.255022725612275
82,78.7704963684082,0.009997486877441411,0.0012697579226579,18.20702498792515
83,80.2856330871582,0.009997486877441411,0.0012631915781208,18.112870348735303
84,81.1027221679688,0.009997486877441411,0.0012596104228315,18.061520258553198
85,81.8927268981934,0.009997486877441411,0.0012559943985865,18.009670183345282
86,82.6900672912598,0.009997486877441411,0.0012523420169155,17.957298779975623
87,84.2155570983887,0.009997486877441411,0.0012452702460848,17.855896846641812
88,85.0892753601074,0.009997486877441411,0.0012412748997392,17.7986076819501
89,85.8827629089356,0.009997486877441411,0.0012374022877661,17.74307840215228
90,87.4509086608887,0.009997486877441411,0.0012299984550553,17.636915042375968
91,88.282642364502,0.009997486877441411,0.0012259958576297,17.579521904641524
92,89.0531349182129,0.009997486877441411,0.0012220161923172,17.522457589865212
93,90.5841484069824,0.009997486877441411,0.0012143665424081,17.41276946383854
94,91.4168319702148,0.009997486877441411,0.0012102549748763,17.353813806657584
95,92.2145881652832,0.009997486877441411,0.0012061379599846,17.294780039928302
96,93.7521133422852,0.009997486877441411,0.0011982630892721,17.18186247880843
97,94.5867347717285,0.009997486877441411,0.0011940338521745,17.12121956086177
98,95.3872413635254,0.009997486877441411,0.0011898532308343,17.061273742963866
99,96.8934020996094,0.009997486877441411,0.0011819174494434,16.94748278525093
100,97.7154388427734,0.009997486877441411,0.0011776281318101,16.885978374105246
101,98.527961730957,0.009997486877441411,0.0011733625105753,16.824813744985658
102,100.082324981689,0.009997486877441411,0.0011652835672829,16.708969992585313
103,100.91125869751,0.009997486877441411,0.0011610020037193,16.647576766838256
104,101.711833953857,0.009997486877441411,0.0011567019157475,16.58591792009607
105,103.247596740723,0.009997486877441411,0.0011485915741265,16.46962394789934
106,104.047138214111,0.009997486877441411,0.0011442493851311,16.407361415702606
107,104.838108062744,0.009997486877441411,0.0011399339167905,16.3454820302624
108,106.373767852783,0.009997486877441411,0.0011317248548405,16.227772509901058
109,107.231826782227,0.009997486877441411,0.001127351669643,16.165065523989103
110,108.033931732178,0.009997486877441411,0.0011230491955691,16.103372462992542
111,109.564701080322,0.009997486877441411,0.0011148037342372,15.985141012864926
112,110.421779632568,0.009997486877441411,0.0011104157070072,15.922221207444792
113,111.212257385254,0.009997486877441411,0.0011060284010337,15.859311744102378
114,112.794799804688,0.009997486877441411,0.0010977627567735,15.740790891504156
115,113.602649688721,0.009997486877441411,0.0010933774436928,15.677910004198448
116,115.137626647949,0.009997486877441411,0.0010851401299395,15.559795381983077
117,115.940559387207,0.009997486877441411,0.0010807689674668,15.49711739986808
118,117.470512390137,0.009997486877441411,0.0010725320860925,15.37900897752366
119,118.286201477051,0.009997486877441411,0.0010681637765052,15.316371902856321
120,119.801368713379,0.009997486877441411,0.0010601612968783,15.201624560916258
121,120.614368438721,0.009997486877441411,0.0010557935837807,15.138996039298823
122,122.150062561035,0.009997486877441411,0.0010476755718797,15.022592083161742
123,123.005168914795,0.009997486877441411,0.0010433785089524,14.960976612451962
124,124.525894165039,0.009997486877441411,0.0010353072644018,14.845243252104959
125,125.353351593018,0.009997486877441411,0.0010309846547242,14.783261467223973
126,126.903823852539,0.009997486877441411,0.0010228542487538,14.666679792856323
127,127.714183807373,0.009997486877441411,0.0010186219043493,14.605992319318897
128,129.226501464844,0.009997486877441411,0.0010107230802178,14.49273129076283
129,130.054832458496,0.009997486877441411,0.0010065445021243,14.432814770924864
130,131.514709472656,0.009997486877441411,0.0009990364995749,14.325157722611124
131,132.336006164551,0.009997486877441411,0.0009948430548538,14.265028030596499
132,133.806274414062,0.009997486877441411,0.0009873644748912,14.157792871970175
133,134.611206054688,0.009997486877441411,0.0009832188324806,14.098348616010895
134,136.077163696289,0.009997486877441411,0.0009758371012662,13.992502169002005
135,136.891242980957,0.009997486877441411,0.0009717162439048,13.933413305202178
136,138.455047607422,0.009997486877441411,0.0009639632075438,13.822242723599082
137,139.270767211914,0.009997486877441411,0.0009598350692951,13.763049459350443
138,140.79549407959,0.009997486877441411,0.0009521571764299,13.652956358329508
139,141.605285644531,0.009997486877441411,0.0009481079609313,13.594894765289647
140,143.182022094727,0.009997486877441411,0.0009405107713106,13.485958865939201
141,144.035011291504,0.009997486877441411,0.000936414152436,13.427217557155148
142,145.571220397949,0.009997486877441411,0.0009288146057372,13.318247859724691
143,146.39395904541,0.009997486877441411,0.0009248001670864,13.260684930977916
144,147.933898925781,0.009997486877441411,0.0009173882148961,13.154405146201606
145,148.761215209961,0.009997486877441411,0.0009133998198524,13.097215656042442
146,150.299385070801,0.009997486877441411,0.0009061547907069,12.993329376353598
147,151.087768554687,0.009997486877441411,0.0009022779612447,12.937739622092055
148,152.620552062988,0.009997486877441411,0.0008950040161035,12.833438716712072
149,153.456893920898,0.009997486877441411,0.0008911212069159,12.777763219327502
150,155.011825561523,0.009997486877441411,0.0008838758378651,12.673872065745625
151,156.557090759277,0.009997486877441411,0.0008766546853052,12.570328151780899
152,158.102363586426,0.009997486877441411,0.0008695028956942,12.467778831290506
153,159.671531677246,0.009997486877441411,0.0008623714578976,12.365521334924
154,161.227203369141,0.009997486877441411,0.0008552855049887,12.263916045149124
155,162.781341552734,0.009997486877441411,0.000848364333726,12.1646735550043
156,164.323356628418,0.009997486877441411,0.0008413719146879,12.064409444908229
157,165.878044128418,0.009997486877441411,0.0008345600943765,11.966734935137653
158,167.401245117187,0.009997486877441411,0.0008278857754622,11.871032054232863
159,168.933288574219,0.009997486877441411,0.0008211048303047,11.773800262470605
160,170.503952026367,0.009997486877441411,0.0008144615874086,11.678542979761971
161,172.046348571777,0.009997486877441411,0.000807930808367,11.58489831326355
162,173.579162597656,0.009997486877441411,0.0008013103266147,11.489967401988814
163,175.126937866211,0.009997486877441411,0.0007947188096767,11.395451816413821
164,176.651870727539,0.009997486877441411,0.000788280656674,11.303135312216805
165,178.198799133301,0.009997486877441411,0.0007818745707329,11.211278616760824
166,179.715835571289,0.009997486877441411,0.0007755918758129,11.1211912218655
167,181.266265869141,0.009997486877441411,0.000769244809532,11.030180807743045
168,182.797721862793,0.009997486877441411,0.0007629176723615,10.939456156603097
169,184.347869873047,0.009997486877441411,0.0007567690282079,10.851290912071981
170,185.901176452637,0.009997486877441411,0.0007505282423655,10.761804450322627
171,187.424758911133,0.009997486877441411,0.0007444580321029,10.674763867262689
172,188.956695556641,0.009997486877441411,0.0007384401011626,10.588472916010897
173,190.50659942627,0.009997486877441411,0.0007323231959723,10.500762775628047
174,192.077209472656,0.009997486877441411,0.0007263953356525,10.415763344601375
175,193.612365722656,0.009997486877441411,0.0007204037544234,10.329850221155722
176,195.117500305176,0.009997486877441411,0.0007145957109418,10.246568840576424
177,196.659736633301,0.009997486877441411,0.0007088082038729,10.163581931071121
178,198.173202514648,0.009997486877441411,0.0007029913480772,10.080174190954976
179,199.746353149414,0.009997486877441411,0.0006971917293987,9.997013613402636
180,201.325965881348,0.009997486877441411,0.0006915845127364,9.916611883229136
181,202.774620056152,0.009997486877441411,0.0006862031054717,9.839448027985373
182,204.201835632324,0.009997486877441411,0.0006809331429799,9.763882176367938
183,205.697875976562,0.009997486877441411,0.0006755298164874,9.686404021901346
184,207.182693481445,0.009997486877441411,0.0006703086942971,9.611538490064524
185,208.623031616211,0.009997486877441411,0.0006652512431903,9.53901983352882
186,210.135459899902,0.009997486877441411,0.0006598234119424,9.461190306028104
187,211.669059753418,0.009997486877441411,0.0006545469005526,9.385530549936908
188,213.21044921875,0.009997486877441411,0.0006492330679002,9.309335645256667
189,214.767387390137,0.009997486877441411,0.0006439552195694,9.233656718804129
190,216.339698791504,0.009997486877441411,0.0006387713989178,9.159326052735876
191,217.839668273926,0.009997486877441411,0.000633661176997,9.08605071690565
192,219.356056213379,0.009997486877441411,0.0006285684691931,9.013026515530541
193,220.888687133789,0.009997486877441411,0.0006234487933708,8.939615620458847
194,222.496231079102,0.009997486877441411,0.0006183154808095,8.86600918855033
195,224.052040100098,0.009997486877441411,0.0006132688954734,8.793646336010896
196,225.592109680176,0.009997486877441411,0.0006083591663501,8.723245861056782
197,227.036392211914,0.009997486877441411,0.0006037058920823,8.656522685435904
198,228.512405395508,0.009997486877441411,0.0005991271365608,8.59086803213077
199,230.078254699707,0.009997486877441411,0.0005943428330825,8.522266032155146
200,231.616058349609,0.009997486877441411,0.0005896279248991,8.454659089462288
201,233.143486022949,0.009997486877441411,0.0005847694606356,8.384993699965586
202,234.696128845215,0.009997486877441411,0.0005800504843361,8.317328424664467
203,236.211326599121,0.009997486877441411,0.0005754327120403,8.251114310873241
204,237.745185852051,0.009997486877441411,0.0005708566498127,8.18549827663751
205,239.183433532715,0.009997486877441411,0.0005666016861481,8.12448646613278
206,240.650856018066,0.009997486877441411,0.0005623258104419,8.06317479842128
207,242.116516113281,0.009997486877441411,0.0005580458269283,8.001804228969027
208,243.591262817383,0.009997486877441411,0.0005538687148712,7.9419087305878975
209,245.001419067383,0.009997486877441411,0.000549767579222,7.883102655893317
210,246.43913269043,0.009997486877441411,0.000545688668788,7.824615267966733
211,247.879013061523,0.009997486877441411,0.0005416461227218,7.766649307740177
212,249.332977294922,0.009997486877441411,0.0005375679104477,7.708171930709778
213,250.806167602539,0.009997486877441411,0.0005335917789756,7.651158287576712
214,252.263038635254,0.009997486877441411,0.0005295921706317,7.593808010205047
215,253.741882324219,0.009997486877441411,0.00052559598427,7.536506800544881
216,255.199966430664,0.009997486877441411,0.0005216975321689,7.480606999840837
217,256.636260986328,0.009997486877441411,0.0005178505534854,7.425445275098938
218,258.095809936523,0.009997486877441411,0.0005139713952326,7.3698221283710925
219,259.538223266602,0.009997486877441411,0.0005101303737241,7.314745823402637
220,260.962829589844,0.009997486877441411,0.0005063327358204,7.260291594786349
221,262.419357299805,0.009997486877441411,0.0005025240616018,7.205679116745053
222,263.901657104492,0.009997486877441411,0.0004987506858925,7.15157278308718
223,265.374114990234,0.009997486877441411,0.0004950085328421,7.097914150302552
224,266.915557861328,0.009997486877441411,0.000491182389826,7.043051187639804
225,268.451507568359,0.009997486877441411,0.0004873963020623,6.9887625761729275
226,270.007202148438,0.009997486877441411,0.0004835750231324,6.933969359512474
227,271.548919677734,0.009997486877441411,0.0004798642475184,6.880760646951534
228,273.037612915039,0.009997486877441411,0.000476109113345,6.826915878190421
229,274.585388183594,0.009997486877441411,0.0004724046108771,6.7737971161041
230,276.126983642578,0.009997486877441411,0.0004687140156484,6.720877769549756
231,277.649002075195,0.009997486877441411,0.000465092771203,6.66895284202753
232,279.169830322266,0.009997486877441411,0.0004615429590233,6.618052179858044
233,280.604705810547,0.009997486877441411,0.0004581598853973,6.569542377363062
234,282.080459594727,0.009997486877441411,0.0004548630735882,6.522269480759965
235,283.553329467773,0.009997486877441411,0.0004515786872512,6.475174752669917
236,285.101028442383,0.009997486877441411,0.0004481318718817,6.425750959014913
237,286.605224609375,0.009997486877441411,0.0004447312446862,6.376989456355032
238,288.118591308594,0.009997486877441411,0.0004413583766179,6.328625991079724
239,289.636642456055,0.009997486877441411,0.0004379833297095,6.280231283474333
240,291.151214599609,0.009997486877441411,0.0004346478088518,6.232403338855749
241,292.686172485352,0.009997486877441411,0.0004313677544481,6.1853707262417545
242,294.221038818359,0.009997486877441411,0.0004280368798826,6.137609404683109
243,295.757507324219,0.009997486877441411,0.0004247920429487,6.091081774429308
244,297.293518066406,0.009997486877441411,0.0004215692699103,6.044870517784628
245,298.678848266602,0.009997486877441411,0.0004186767767492,6.003395135491826
246,299.131439208984,0.009997486877441411,0.0004175256451235,5.986889089812159
247,299.404861450195,0.009997486877441411,0.0004168107374216,5.976638047341554
248,299.582366943359,0.009997486877441411,0.0004162975703785,5.96927975879696
249,299.694717407227,0.009997486877441411,0.0004159510959312,5.964311670937769
250,299.772735595703,0.009997486877441411,0.0004157127150726,5.960893534164037
251,299.864151000977,0.009997486877441411,0.0004154640548393,5.957328001710638
252,299.891662597656,0.009997486877441411,0.0004153447975151,5.955617974119587
