,Temp,Field,Moment_emu,Moment_emu_g
0,5.00235652923584,0.010008486938476599,0.0005105512439214,0.030535361478552635
1,5.6002459526062,0.010008486938476599,0.0005119821944078,0.030620944641614835
2,6.33542346954346,0.010008486938476599,0.0005162293724953,0.030874962469814596
3,7.10036993026733,0.010008486938476599,0.0005224273365564,0.031245654100263164
4,7.86156153678894,0.010008486938476599,0.0005293265298943,0.03165828528075957
5,8.61270666122436,0.010008486938476599,0.0005366701709566,0.03209749826295454
6,9.4004955291748,0.010008486938476599,0.0005444921101027,0.0325653175898744
7,10.1405649185181,0.010008486938476599,0.0005527730455563,0.03306058884906101
8,10.8864994049072,0.010008486938476599,0.0005615341315172,0.03358457724385168
9,11.6558866500854,0.010008486938476599,0.0005708764842149,0.03414333039562799
10,12.4301199913025,0.010008486938476599,0.0005808456824012,0.03473957430629187
11,13.2056283950806,0.010008486938476599,0.0005915446986185,0.035379467620723686
12,15.0835666656494,0.010008486938476599,0.0006255594256874,0.03741384124924641
13,16.2761597633362,0.010008486938476599,0.0006394394078422,0.03824398372261962
14,17.0626602172852,0.010008486938476599,0.0006530731506162,0.039059398960299044
15,17.8322887420654,0.010008486938476599,0.0006668808866661,0.03988522049438398
16,18.5998401641846,0.010008486938476599,0.000680750206822,0.04071472528839713
17,19.3829755783081,0.010008486938476599,0.0006946401075116,0.04154546097557417
18,20.1701641082764,0.010008486938476599,0.0007086362032022,0.042382548038409094
19,20.9331932067871,0.010008486938476599,0.0007222771796371,0.04319839591130981
20,21.7315111160278,0.010008486938476599,0.0007358358410463,0.044009320636740436
21,23.5754413604736,0.010008486938476599,0.0007733676548232,0.04625404634110048
22,24.7461795806885,0.010008486938476599,0.0007862976216277,0.047027369714575364
23,25.5266790390015,0.010008486938476599,0.0007989851330833,0.04778619217005383
24,26.2908725738525,0.010008486938476599,0.0008115109129588,0.04853534168413876
25,27.0700750350952,0.010008486938476599,0.0008239676916409,0.04928036433258972
26,27.8497638702393,0.010008486938476599,0.0008363976108334,0.05002378055223685
27,28.6374931335449,0.010008486938476599,0.0008490546167927,0.05078077851630981
28,29.4424524307251,0.010008486938476599,0.0008612714399933,0.051511449760364834
29,30.2358121871948,0.010008486938476599,0.0008737155281093,0.05225571340366627
30,32.0643844604492,0.010008486938476599,0.0009089403393473,0.05436246048727872
31,33.2248821258545,0.010008486938476599,0.0009215224944646,0.05511498172635168
32,33.9878959655762,0.010008486938476599,0.0009340316422304,0.0558631364970335
33,34.7622489929199,0.010008486938476599,0.0009466159791212,0.056615788224952154
34,35.543270111084,0.010008486938476599,0.0009592286240527,0.057370133017505986
35,36.3472194671631,0.010008486938476599,0.0009719413189043,0.05813046165695575
36,37.131046295166,0.010008486938476599,0.0009846337182539,0.05888957645059212
37,38.9745349884033,0.010008486938476599,0.0010211899516832,0.061075954048038276
38,40.149974822998,0.010008486938476599,0.0010341370199608,0.061850300236889956
39,40.937219619751,0.010008486938476599,0.0010470796285823,0.06262437969989833
40,41.7304592132568,0.010008486938476599,0.0010602473811684,0.06341192471102872
41,42.5004444122314,0.010008486938476599,0.0010732310688589,0.0641884610561543
42,43.2775077819824,0.010008486938476599,0.001086290870137,0.06496954964934211
43,45.1412830352783,0.010008486938476599,0.0011239730917224,0.06722327103602871
44,46.3363742828369,0.010008486938476599,0.0011372395969916,0.06801672230811005
45,47.1139755249023,0.010008486938476599,0.0011503869904423,0.06880304966760167
46,47.8902454376221,0.010008486938476599,0.0011635197597511,0.06958850237745813
47,48.6813831329346,0.010008486938476599,0.0011766161365347,0.07037177850087918
48,50.5543479919434,0.010008486938476599,0.0012143638252529,0.072629415385939
49,51.7283535003662,0.010008486938476599,0.0012275720860548,0.0734193831372488
50,52.5097427368164,0.010008486938476599,0.0012407093361752,0.07420510383822967
51,53.3021907806396,0.010008486938476599,0.0012539238830662,0.07499544755180622
52,54.1177940368652,0.010008486938476599,0.0012671710752635,0.07578774373585527
53,55.9813804626465,0.010008486938476599,0.0013048885215981,0.07804357186591507
54,57.1517486572266,0.010008486938476599,0.001318047105181,0.0788305684916866
55,57.9520950317383,0.010008486938476599,0.0013311306455692,0.07961307688811005
56,58.7512550354004,0.010008486938476599,0.0013442583425334,0.08039822622807416
57,60.6131744384766,0.010008486938476599,0.0013813593085315,0.08261718352461125
58,61.802827835083,0.010008486938476599,0.0013944085813442,0.08339764242489235
59,62.6040439605713,0.010008486938476599,0.0014075100280959,0.08418122177607058
60,63.3676090240478,0.010008486938476599,0.0014203047149197,0.08494645424160886
61,65.2419662475586,0.010008486938476599,0.0014566504022392,0.08712023936837321
62,66.4238433837891,0.010008486938476599,0.0014692512327557,0.0878738775571591
63,67.2196922302246,0.010008486938476599,0.0014819054922198,0.08863071125716508
64,68.0226898193359,0.010008486938476599,0.0014944056386007,0.08937832766750599
65,69.8680000305176,0.010008486938476599,0.0015298169466032,0.09149622886382776
66,71.0534934997559,0.010008486938476599,0.0015422316542893,0.09223873530438398
67,71.8661346435547,0.010008486938476599,0.001554543204958,0.09297507206686603
68,73.7253379821777,0.010008486938476599,0.0015885372979334,0.09500821159888757
69,74.9394683837891,0.010008486938476599,0.0016003916594234,0.0957172045109689
70,75.7687683105469,0.010008486938476599,0.0016120978899786,0.09641733791738039
71,77.6613273620605,0.010008486938476599,0.0016452335918122,0.09839913826627991
72,78.8392639160156,0.010008486938476599,0.0016565936795532,0.09907856935126795
73,79.6111717224121,0.010008486938476599,0.0016678547542885,0.09975207860577154
74,81.4648170471191,0.010008486938476599,0.0016993951956014,0.10163846863644738
75,82.6507301330566,0.010008486938476599,0.0017102529913749,0.10228785833581938
76,83.4481658935547,0.010008486938476599,0.0017209962172919,0.10293039577104666
77,85.3460121154785,0.010008486938476599,0.0017509982835607,0.10472477772492225
78,86.5368156433105,0.010008486938476599,0.0017614404765403,0.10534931079786485
79,87.3731803894043,0.010008486938476599,0.0017718571429472,0.10597231716191388
80,89.2637481689453,0.010008486938476599,0.0018003445917162,0.10767611194474881
81,90.4476890563965,0.010008486938476599,0.0018101491467666,0.1082625087779067
82,92.3906402587891,0.010008486938476599,0.0018376883097995,0.10990958790666866
83,93.5805625915527,0.010008486938476599,0.0018471328232407,0.11047445115075957
84,95.504581451416,0.010008486938476599,0.0018731869004117,0.11203270935476675
85,96.6980857849121,0.010008486938476599,0.0018820575088232,0.11256324813535887
86,98.6289787292481,0.010008486938476599,0.0019067654330559,0.11404099479999404
87,99.8420219421387,0.010008486938476599,0.0019152780357259,0.1145501217539414
88,101.777011871338,0.010008486938476599,0.0019387844368647,0.11595600698951557
89,103.009071350098,0.010008486938476599,0.0019468104512944,0.11643603177598087
90,104.894866943359,0.010008486938476599,0.0019690380070287,0.11776543104238636
91,106.075141906738,0.010008486938476599,0.0019766677250038,0.11822175388778709
92,107.965030670166,0.010008486938476599,0.0019975926272851,0.11947324325867824
93,109.175075531006,0.010008486938476599,0.0020047835667455,0.11990332336994618
94,111.107551574707,0.010008486938476599,0.002025060128409,0.12111603638809809
95,113.449405670166,0.010008486938476599,0.0020439467552651,0.12224561933403709
96,115.768241882324,0.010008486938476599,0.0020621981753929,0.1233372114469438
97,118.087413787842,0.010008486938476599,0.0020795298177655,0.12437379292855862
98,120.435062408447,0.010008486938476599,0.0020963692985648,0.125380938909378
99,122.733295440674,0.010008486938476599,0.0021120706142421,0.12632001281352273
100,125.036632537842,0.010008486938476599,0.0021270898532895,0.12721829266085527
101,127.389797210693,0.010008486938476599,0.0021416846152492,0.12809118512255982
102,129.737968444824,0.010008486938476599,0.0021553833384473,0.12891048674924044
103,132.037590026855,0.010008486938476599,0.0021682325659045,0.12967898121438398
104,134.379997253418,0.010008486938476599,0.0021804956146078,0.13041241714161486
105,136.703002929688,0.010008486938476599,0.0021921060215366,0.13110681946989233
106,138.992530822754,0.010008486938476599,0.0022030214790454,0.13175965783764354
107,141.302284240723,0.010008486938476599,0.0022133749440762,0.13237888421508376
108,143.623085021973,0.010008486938476599,0.0022231270498305,0.13296214412861843
109,145.955490112305,0.010008486938476599,0.002232228326826,0.1335064788771531
110,148.267639160156,0.010008486938476599,0.0022408154949388,0.13402006548677037
111,150.628280639648,0.010008486938476599,0.0022489110168589,0.13450424741979067
112,152.945823669434,0.010008486938476599,0.00225623523963,0.13494229902093302
113,155.259033203125,0.010008486938476599,0.0022630506506786,0.13534991929895934
114,157.58024597168,0.010008486938476599,0.0022692624919854,0.13572144090821772
115,159.897262573242,0.010008486938476599,0.0022749158346032,0.13605955948583734
116,162.208572387695,0.010008486938476599,0.0022800384160851,0.13636593397638158
117,164.553466796875,0.010008486938476599,0.0022845535161324,0.13663597584523926
118,166.874183654785,0.010008486938476599,0.002288532739204,0.13687396765574164
119,169.219085693359,0.010008486938476599,0.0022919731802115,0.13707973565858253
120,171.514350891113,0.010008486938476599,0.0022948683138054,0.13725288958166268
121,173.842430114746,0.010008486938476599,0.0022972053197177,0.13739266266254188
122,176.155822753906,0.010008486938476599,0.0022989735121584,0.1374984157989474
123,178.459091186523,0.010008486938476599,0.0023002447303674,0.13757444559613638
124,180.782417297363,0.010008486938476599,0.0023009808699903,0.13761847308554429
125,183.097595214844,0.010008486938476599,0.0023011441462627,0.13762823841284091
126,185.428199768066,0.010008486938476599,0.0023008292493548,0.1376094048657177
127,187.756507873535,0.010008486938476599,0.0022999838604515,0.13755884332843898
128,190.069862365723,0.010008486938476599,0.002298662485507,0.13747981372649523
129,192.408645629883,0.010008486938476599,0.0022968090766007,0.13736896391152514
130,194.732688903809,0.010008486938476599,0.0022945436135602,0.1372334697105383
131,197.084030151367,0.010008486938476599,0.0022918095233726,0.1370699475701316
132,199.442153930664,0.010008486938476599,0.0022885793303715,0.13687675420882178
133,201.716918945313,0.010008486938476599,0.0022849708064386,0.1366609333994378
134,204.028770446777,0.010008486938476599,0.0022809990735984,0.13642338956928232
135,206.358825683594,0.010008486938476599,0.0022765555880601,0.13615763086483854
136,208.654640197754,0.010008486938476599,0.002271779594811,0.13587198533558614
137,210.944549560547,0.010008486938476599,0.0022666112744749,0.13556287526763755
138,213.272483825684,0.010008486938476599,0.0022610913893948,0.1352327386001675
139,215.576904296875,0.010008486938476599,0.0022551917754539,0.13487989087642943
140,217.88842010498,0.010008486938476599,0.0022490832304229,0.13451454727409692
141,220.201972961426,0.010008486938476599,0.0022425546037361,0.1341240791708194
142,222.534934997559,0.010008486938476599,0.0022357808181219,0.13371894845226676
143,224.850700378418,0.010008486938476599,0.0022288243979392,0.13330289461358855
144,227.159156799316,0.010008486938476599,0.0022216761192178,0.13287536598192584
145,229.490692138672,0.010008486938476599,0.0022140105128573,0.13241689670199164
146,231.843559265137,0.010008486938476599,0.0022061720768555,0.13194809072102273
147,234.173797607422,0.010008486938476599,0.0021982145363567,0.13147216126535288
148,236.482528686523,0.010008486938476599,0.0021900771446976,0.13098547516133974
149,238.818809509277,0.010008486938476599,0.0021817700889254,0.13048864168214117
150,241.114379882813,0.010008486938476599,0.0021732752782227,0.1299805788410706
151,243.445648193359,0.010008486938476599,0.0021646388294386,0.12946404482288276
152,245.765144348145,0.010008486938476599,0.0021558311273255,0.12893726838071173
153,248.096893310547,0.010008486938476599,0.0021467866056331,0.12839632808810408
154,250.468185424805,0.010008486938476599,0.0021377169736882,0.12785388598613637
155,252.767768859863,0.010008486938476599,0.0021285386590799,0.12730494372487441
156,255.059211730957,0.010008486938476599,0.002119188782748,0.12674574059497606
157,257.391357421875,0.010008486938476599,0.0021096954841998,0.12617795958132777
158,259.700912475586,0.010008486938476599,0.0021001054662406,0.12560439391391148
159,262.004501342773,0.010008486938476599,0.0020904923049884,0.12502944407825362
160,264.344314575195,0.010008486938476599,0.0020807864108696,0.12444894801851675
161,266.649826049805,0.010008486938476599,0.002070993457935,0.12386324509180623
162,268.979049682617,0.010008486938476599,0.0020610721698467,0.1232698666176256
163,271.31266784668,0.010008486938476599,0.0020510035512065,0.12266767650756581
164,273.649703979492,0.010008486938476599,0.0020409213843283,0.12206467609619019
165,275.960479736328,0.010008486938476599,0.00203081720494,0.1214603591471292
166,278.296173095703,0.010008486938476599,0.0020205620513212,0.12084701263882776
167,280.687835693359,0.010008486938476599,0.002010344309092,0.12023590365382776
168,282.954849243164,0.010008486938476599,0.002000039123501,0.1196195648026914
169,285.247360229492,0.010008486938476599,0.0019897039423901,0.1190014319611304
170,287.602783203125,0.010008486938476599,0.0019793029098479,0.11837936063683614
171,289.927368164063,0.010008486938476599,0.0019688341023344,0.11775323578555025
172,292.233108520508,0.010008486938476599,0.0019583293632792,0.11712496191861245
173,294.564987182617,0.010008486938476599,0.0019478415978847,0.11649770322276914
174,296.889556884766,0.010008486938476599,0.0019372456941763,0.11586397692441987
175,298.852844238281,0.010008486938476599,0.0019282710305986,0.11532721474872011
176,299.404006958008,0.010008486938476599,0.0019265421969915,0.11522381560953948
177,299.718872070313,0.010008486938476599,0.0019238782565122,0.11506448902584929
178,299.822296142578,0.010008486938476599,0.0019232946214446,0.1150295826222847
179,299.862442016602,0.010008486938476599,0.0019228897016781,0.11500536493290073
180,299.893951416016,0.010008486938476599,0.0019226235444919,0.11498944644090311
181,299.917602539063,0.010008486938476599,0.0019223964009264,0.11497586129942584
182,299.934768676758,0.010008486938476599,0.0019222171670437,0.11496514156959929
183,299.968551635742,0.010008486938476599,0.0019220074278159,0.1149525973574103
184,299.864715576172,0.010008486938476599,0.0019225584568645,0.1149855536402213
185,299.522918701172,0.010008486938476599,0.0019231500768433,0.11502093761024522
186,298.353500366211,0.010008486938476599,0.0019270938856471,0.11525681134252992
187,296.848999023438,0.010008486938476599,0.0019337947652599,0.11565758165430025
188,295.213256835937,0.010008486938476599,0.0019427197059884,0.11619136997538278
189,293.464447021484,0.010008486938476599,0.001952190330958,0.116757794913756
190,291.85546875,0.010008486938476599,0.0019615925565965,0.11732012898304427
191,290.286331176758,0.010008486938476599,0.0019711046883218,0.1178890363828828
192,288.722305297852,0.010008486938476599,0.0019805241790626,0.11845240305398325
193,287.211791992187,0.010008486938476599,0.0019887892016205,0.11894672258495816
194,285.787322998047,0.010008486938476599,0.001995908956106,0.11937254522165074
195,284.334228515625,0.010008486938476599,0.002002959716458,0.11979424141495217
196,282.862335205078,0.010008486938476599,0.0020089304876756,0.12015134495667465
197,281.386520385742,0.010008486938476599,0.0020150101374108,0.12051496037145934
198,279.929656982422,0.010008486938476599,0.0020211700381543,0.12088337548769738
199,278.393081665039,0.010008486938476599,0.0020276080040763,0.12126842129642942
200,276.832672119141,0.010008486938476599,0.0020339654279208,0.12164864999526316
201,275.351226806641,0.010008486938476599,0.002040527651153,0.12204112746130383
202,273.808181762695,0.010008486938476599,0.0020472504931297,0.12244321131158493
203,272.299713134766,0.010008486938476599,0.002054208512486,0.12285936079461723
204,270.771575927734,0.010008486938476599,0.0020606285284225,0.1232433330396232
205,269.247619628906,0.010008486938476599,0.0020675847365037,0.12365937419280502
206,267.700942993164,0.010008486938476599,0.0020743473609911,0.1240638373798505
207,266.146530151367,0.010008486938476599,0.0020810644660589,0.12446557811357058
208,264.543960571289,0.010008486938476599,0.0020873068186797,0.12483892456218303
209,263.064483642578,0.010008486938476599,0.0020935895741739,0.1252146874505921
210,261.56169128418,0.010008486938476599,0.0020999412589511,0.12559457290377393
211,260.024047851562,0.010008486938476599,0.0021062662460877,0.12597286160811605
212,258.489501953125,0.010008486938476599,0.002113058508112,0.12637909737511963
213,256.925735473633,0.010008486938476599,0.0021197044723972,0.1267765832773445
214,255.347549438477,0.010008486938476599,0.0021262841594095,0.12717010522784092
215,253.77027130127,0.010008486938476599,0.0021327114355748,0.12755451169705742
216,252.201705932617,0.010008486938476599,0.0021392204179842,0.12794380490336127
217,250.632293701172,0.010008486938476599,0.002145437771535,0.1283156561922847
218,249.0771484375,0.010008486938476599,0.0021514377048583,0.12867450387908494
219,247.548202514648,0.010008486938476599,0.0021574393511239,0.12903345401458732
220,246.010704040527,0.010008486938476599,0.0021639900378679,0.1294252414992763
221,244.370208740234,0.010008486938476599,0.0021702788062383,0.1298013640094677
222,242.739440917969,0.010008486938476599,0.0021767809781361,0.13019024988852274
223,241.109962463379,0.010008486938476599,0.0021828908295174,0.13055567162185408
224,239.559013366699,0.010008486938476599,0.0021890748631066,0.13092553009010768
225,238.038864135742,0.010008486938476599,0.0021953019376716,0.13129796277940192
226,236.465225219727,0.010008486938476599,0.0022013278272103,0.13165836287142946
227,234.917343139648,0.010008486938476599,0.0022075614677407,0.1320311882620036
228,233.414077758789,0.010008486938476599,0.0022132708885032,0.13237266079564594
229,231.897964477539,0.010008486938476599,0.0022188965044057,0.13270912107689595
230,230.361129760742,0.010008486938476599,0.0022250120895997,0.13307488574160886
231,228.824668884277,0.010008486938476599,0.0022308438320771,0.13342367416729067
232,227.270484924316,0.010008486938476599,0.0022362882920457,0.1337492997634988
233,225.781379699707,0.010008486938476599,0.0022417427970665,0.13407552614034093
234,224.234039306641,0.010008486938476599,0.0022471955806888,0.1344016495627273
235,222.709373474121,0.010008486938476599,0.0022531646583067,0.1347586518126017
236,221.139236450195,0.010008486938476599,0.0022587355451801,0.135091838826561
237,219.585388183594,0.010008486938476599,0.002264034522673,0.1354087633177632
238,218.04515838623,0.010008486938476599,0.0022696439155415,0.13574425332186005
239,216.497108459473,0.010008486938476599,0.0022748436363551,0.13605524140879785
240,214.96314239502,0.010008486938476599,0.0022801623233376,0.13637334469722487
241,213.443969726562,0.010008486938476599,0.0022853964978622,0.13668639341281102
242,211.929313659668,0.010008486938476599,0.0022907741569433,0.137008023740628
243,210.365859985352,0.010008486938476599,0.0022962731306686,0.13733690972898324
244,208.779022216797,0.010008486938476599,0.0023014199552515,0.1376447341657596
245,207.242462158203,0.010008486938476599,0.0023065393365132,0.13795091725557418
246,205.731155395508,0.010008486938476599,0.0023115435169866,0.13825021034608853
247,204.185249328613,0.010008486938476599,0.0023170054320351,0.13857687990640552
