,Temp,Field,Moment_emu,Moment_emu_g
0,5.00226306915283,0.0100097091674805,0.0004442765559064,0.016944185961342485
1,5.52478957176209,0.0100097091674805,0.0004458498705304,0.0170041903329672
2,6.27607440948486,0.0100097091674805,0.0004519556720007,0.017237058428707094
3,7.0187509059906,0.0100097091674805,0.0004621855819439,0.017627215177112892
4,7.77736759185791,0.0100097091674805,0.0004740132344255,0.01807830794910374
5,8.51658535003662,0.0100097091674805,0.0004867872156095,0.018565492586174678
6,9.31587600708008,0.0100097091674805,0.0005010442037949,0.019109237368226544
7,10.1233291625977,0.0100097091674805,0.000516205626644,0.0196874762259344
8,10.8758363723755,0.0100097091674805,0.0005315870043299,0.02027410390274218
9,11.662383556366,0.0100097091674805,0.0005476080671768,0.020885128420167813
10,12.4203176498413,0.0100097091674805,0.0005641343352834,0.021515420872745994
11,13.1920742988586,0.0100097091674805,0.0005810943500587,0.022162255913756673
12,14.6572318077087,0.0100097091674805,0.0006148342189508,0.02344905487989321
13,15.4717631340027,0.0100097091674805,0.0006331935750764,0.024149259156231884
14,16.2948241233826,0.0100097091674805,0.0006528685141033,0.024899638219042716
15,17.0798511505127,0.0100097091674805,0.0006725985133783,0.02565211721503814
16,17.8546476364136,0.0100097091674805,0.0006916539496017,0.026378869168638443
17,18.6602563858032,0.0100097091674805,0.0007109660564717,0.02711541023919527
18,19.4033355712891,0.0100097091674805,0.0007303967825623,0.027856475307486653
19,20.2007684707642,0.0100097091674805,0.0007499257356125,0.02860128663663234
20,20.9604806900024,0.0100097091674805,0.0007694928644311,0.029347553944740656
21,21.7262926101685,0.0100097091674805,0.000789008538424,0.030091858826239513
22,23.1996479034424,0.0100097091674805,0.0008267172703254,0.03153002556542334
23,23.9837617874146,0.0100097091674805,0.0008464708674424,0.03228340455539283
24,24.7688627243042,0.0100097091674805,0.00086599993776,0.0330282203569794
25,25.5356111526489,0.0100097091674805,0.0008854739273495,0.033770935444298246
26,26.3297367095947,0.0100097091674805,0.0009050298341098,0.03451677475628528
27,27.0984926223755,0.0100097091674805,0.0009243046678788,0.035251894274553774
28,27.8847723007202,0.0100097091674805,0.0009436252181549,0.03598875736670099
29,28.6700267791748,0.0100097091674805,0.0009627015850843,0.03671630759284134
30,29.4543561935425,0.0100097091674805,0.000981830720985,0.037445870365560636
31,30.9259777069092,0.0100097091674805,0.0010180650884212,0.03882780657594202
32,31.7230606079102,0.0100097091674805,0.0010368095241821,0.0395426973372273
33,32.4969959259033,0.0100097091674805,0.0010555520195544,0.04025751409437071
34,33.2948589324951,0.0100097091674805,0.0010741536853713,0.040966959777700235
35,34.0807914733887,0.0100097091674805,0.00109256890596,0.0416692946590389
36,34.8577499389648,0.0100097091674805,0.0011107461864322,0.04236255478383677
37,35.6488952636719,0.0100097091674805,0.00112872021838,0.04304806324866514
38,36.4345417022705,0.0100097091674805,0.0011465765370815,0.043729082268554535
39,37.9248676300049,0.0100097091674805,0.001180648478066,0.045028546074218155
40,38.7083148956299,0.0100097091674805,0.0011979906994212,0.045689958025217386
41,39.4984683990479,0.0100097091674805,0.0012151463466012,0.046344254256338674
42,40.2757225036621,0.0100097091674805,0.0012320420587142,0.046988636869344014
43,41.0913372039795,0.0100097091674805,0.0012492522867182,0.04764501474897788
44,41.8739719390869,0.0100097091674805,0.0012655505092478,0.04826660981112891
45,42.6527481079102,0.0100097091674805,0.0012817411870938,0.04888410324537757
46,44.1427688598633,0.0100097091674805,0.0013122866519178,0.050049071392745996
47,44.9547061920166,0.0100097091674805,0.0013281659100605,0.05065468764532799
48,45.740348815918,0.0100097091674805,0.0013434051814744,0.051235895555850494
49,46.5455284118652,0.0100097091674805,0.0013585211622141,0.05181240130488558
50,47.3409252166748,0.0100097091674805,0.0013732972324721,0.05237594326743326
51,48.1099472045898,0.0100097091674805,0.0013876843930793,0.05292465267274218
52,49.606071472168,0.0100097091674805,0.0014140817637887,0.05393141738324561
53,50.3712215423584,0.0100097091674805,0.0014277098925329,0.05445117820491609
54,51.1719226837158,0.0100097091674805,0.0014409758190722,0.05495712505996186
55,51.9803943634033,0.0100097091674805,0.0014539816825872,0.05545315341675057
56,52.7483882904053,0.0100097091674805,0.0014666723591627,0.05593716091390923
57,53.5357475280762,0.0100097091674805,0.0014791815315942,0.056414246056224256
58,55.0460758209229,0.0100097091674805,0.0015017162015518,0.05727369189747521
59,55.8223323822022,0.0100097091674805,0.0015132978133636,0.05771540096733791
60,56.6148662567139,0.0100097091674805,0.0015246378841263,0.05814789794532037
61,57.3948726654053,0.0100097091674805,0.0015356151086785,0.05856655639506102
62,58.1737594604492,0.0100097091674805,0.0015462862022011,0.05897353936693745
63,59.6909923553467,0.0100097091674805,0.0015659421647325,0.059723194688501145
64,60.4838085174561,0.0100097091674805,0.0015757931283684,0.06009889886988558
65,61.280689239502,0.0100097091674805,0.0015854324764464,0.0604665322824714
66,62.0717620849609,0.0100097091674805,0.0015947192945673,0.060820720616601834
67,62.868278503418,0.0100097091674805,0.0016037155037385,0.061163825466762016
68,64.3627853393555,0.0100097091674805,0.0016200642736608,0.061787348347093825
69,65.1639633178711,0.0100097091674805,0.0016282517558384,0.062099609299710146
70,65.9409065246582,0.0100097091674805,0.001636135227847,0.06240027566159421
71,66.7365112304687,0.0100097091674805,0.0016437696884272,0.06269144502010679
72,68.2594337463379,0.0100097091674805,0.0016577106116729,0.06322313545663234
73,69.0697212219238,0.0100097091674805,0.0016646300678926,0.06348703538873379
74,69.8734817504883,0.0100097091674805,0.0016712231172953,0.06373848654825706
75,70.6563224792481,0.0100097091674805,0.0016775262475767,0.06397888053305492
76,72.1866722106934,0.0100097091674805,0.001688974547529,0.0644155052451945
77,73.0053634643555,0.0100097091674805,0.0016945749083543,0.06462909642846301
78,73.8020133972168,0.0100097091674805,0.0016999633730382,0.06483460614180778
79,74.5903015136719,0.0100097091674805,0.0017050765879308,0.06502961815144165
80,76.1141815185547,0.0100097091674805,0.0017141991315348,0.06537754124846681
81,76.9285125732422,0.0100097091674805,0.0017186089377113,0.06554572607594585
82,77.7153663635254,0.0100097091674805,0.0017228251256205,0.06570652653014875
83,78.4842376708984,0.0100097091674805,0.0017267777770892,0.06585727601408085
84,80.0126152038574,0.0100097091674805,0.0017337805333291,0.0661243529111022
85,80.8219528198242,0.0100097091674805,0.0017371300921413,0.06625210114955377
86,81.6274375915527,0.0100097091674805,0.0017403253704012,0.06637396530897025
87,82.430290222168,0.0100097091674805,0.0017433135736636,0.06648793187122806
88,83.9409027099609,0.0100097091674805,0.0017484393043033,0.06668342121675438
89,84.7520751953125,0.0100097091674805,0.0017507748375151,0.06677249570995805
90,85.580436706543,0.0100097091674805,0.0017529369475313,0.06685495604619755
91,87.1151390075684,0.0100097091674805,0.0017566417990163,0.066996254729836
92,87.9224395751953,0.0100097091674805,0.0017582654924934,0.06705818049173913
93,88.7499732971191,0.0100097091674805,0.0017597373581583,0.06711431571923342
94,90.2733993530273,0.0100097091674805,0.0017621110266381,0.067204844646762
95,91.0952682495117,0.0100097091674805,0.0017630611938551,0.06724108290827993
96,91.8967094421387,0.0100097091674805,0.0017638870131566,0.06727257868636918
97,93.4311790466309,0.0100097091674805,0.0017650198717013,0.0673157845805225
98,94.2445793151855,0.0100097091674805,0.0017653656392242,0.06732897174768115
99,95.0644607543945,0.0100097091674805,0.0017655830227492,0.06733726249996949
100,96.5854682922363,0.0100097091674805,0.0017656119033564,0.06733836397240274
101,97.4127769470215,0.0100097091674805,0.0017653934551394,0.0673300326140122
102,98.2097434997559,0.0100097091674805,0.0017650621314683,0.06731739631839435
103,99.8124084472656,0.0100097091674805,0.0017641080774269,0.06728100981795958
104,100.598739624023,0.0100097091674805,0.0017633911375145,0.06725366657187262
105,101.392543792725,0.0100097091674805,0.001762565941105,0.06722219455015255
106,102.925365447998,0.0100097091674805,0.0017607011933063,0.06715107525958429
107,103.774974822998,0.0100097091674805,0.0017595211719958,0.06710607063294431
108,104.588928222656,0.0100097091674805,0.0017582545671988,0.06705776381383677
109,106.087738037109,0.0100097091674805,0.0017555841450098,0.06695591704842868
110,106.932975769043,0.0100097091674805,0.0017539945751767,0.06689529272222348
111,107.725845336914,0.0100097091674805,0.0017523394537559,0.06683216833546529
112,109.257259368896,0.0100097091674805,0.0017489178959368,0.06670167413946605
113,110.07075881958,0.0100097091674805,0.0017469707728449,0.06662741315197941
114,110.874053955078,0.0100097091674805,0.0017449994531288,0.06655222933366896
115,112.332733154297,0.0100097091674805,0.0017412217912636,0.06640815374765828
116,113.1533203125,0.0100097091674805,0.0017389924835649,0.0663231305707437
117,114.719772338867,0.0100097091674805,0.0017344625993793,0.06615036610905034
118,115.524852752686,0.0100097091674805,0.0017319492577296,0.06605451021089245
119,117.088603973389,0.0100097091674805,0.001727072220066,0.06586850572334096
120,117.922878265381,0.0100097091674805,0.0017243891737128,0.06576617748713959
121,119.464309692383,0.0100097091674805,0.001719087970597,0.06556399582749808
122,120.312480926514,0.0100097091674805,0.0017161922199353,0.06545355529882914
123,121.841655731201,0.0100097091674805,0.001710535884682,0.06523782931662853
124,122.686702728271,0.0100097091674805,0.0017074744739781,0.06512107070854692
125,124.205768585205,0.0100097091674805,0.0017014248391875,0.06489034474399313
126,125.03462600708,0.0100097091674805,0.0016981679426657,0.06476613053644928
127,126.611351013184,0.0100097091674805,0.0016919473209599,0.06452888333180397
128,127.436294555664,0.0100097091674805,0.0016885358266281,0.06439877294538902
129,128.958808898926,0.0100097091674805,0.001681985283166,0.06414894291250953
130,129.775634765625,0.0100097091674805,0.0016784334682416,0.06401348086352403
131,131.303535461426,0.0100097091674805,0.0016716727095155,0.06375563346741038
132,132.136390686035,0.0100097091674805,0.0016680314097505,0.06361675857172006
133,133.6806640625,0.0100097091674805,0.0016610144699774,0.0633491407314035
134,134.508293151855,0.0100097091674805,0.0016572342778151,0.06320496864283372
135,136.069236755371,0.0100097091674805,0.0016500387098115,0.06293053813163615
136,136.951126098633,0.0100097091674805,0.0016459616880242,0.06277504530984744
137,138.502029418945,0.0100097091674805,0.0016384897808779,0.062490075548356214
138,139.313217163086,0.0100097091674805,0.0016344982843006,0.06233784455761251
139,140.845321655273,0.0100097091674805,0.0016269283457119,0.06204913599206331
140,141.663925170898,0.0100097091674805,0.0016229253343995,0.06189646584284897
141,143.214828491211,0.0100097091674805,0.0016152271136949,0.061602864748089244
142,144.053619384766,0.0100097091674805,0.0016111289692246,0.06144656633198322
143,145.600494384766,0.0100097091674805,0.0016032567571629,0.06114632941124714
144,146.41650390625,0.0100097091674805,0.0015990819798948,0.06098710831025172
145,147.92700958252,0.0100097091674805,0.0015911611953934,0.06068501889372235
146,148.771873474121,0.0100097091674805,0.0015869371530045,0.06052391887889016
147,150.296333312988,0.0100097091674805,0.0015789430987299,0.06021903503927918
148,151.12183380127,0.0100097091674805,0.0015746072073406,0.06005366923495804
149,152.660697937012,0.0100097091674805,0.0015664159219737,0.059741263233169334
150,153.475212097168,0.0100097091674805,0.0015620983596028,0.05957659647607933
151,155.021415710449,0.0100097091674805,0.0015538757751509,0.059262996763954995
152,156.595649719238,0.0100097091674805,0.0015456119667229,0.05894782481780702
153,158.123649597168,0.0100097091674805,0.0015373043590871,0.05863098242132342
154,159.686126708984,0.0100097091674805,0.0015288670407621,0.05830919301152174
155,161.221183776855,0.0100097091674805,0.0015205812724297,0.05799318354041571
156,162.755058288574,0.0100097091674805,0.0015121654396172,0.057672213562822275
157,164.300674438477,0.0100097091674805,0.0015036144424196,0.057346088574355455
158,165.873649597168,0.0100097091674805,0.0014951231924123,0.05702224227354309
159,167.442527770996,0.0100097091674805,0.0014866213450679,0.05669799180274218
160,169.009407043457,0.0100097091674805,0.0014780690686628,0.05637181802680397
161,170.579627990723,0.0100097091674805,0.0014695265623177,0.0560460168694775
162,172.118560791016,0.0100097091674805,0.0014608864079586,0.05571649153160183
163,173.67504119873,0.0100097091674805,0.0014523356045702,0.05539037393479024
164,175.232635498047,0.0100097091674805,0.0014437182936524,0.05506171981893211
165,176.787620544434,0.0100097091674805,0.001435149834372,0.05473492884713959
166,178.350685119629,0.0100097091674805,0.0014265719755491,0.05440777938783753
167,179.923667907715,0.0100097091674805,0.0014181848709107,0.054087905069057966
168,181.411819458008,0.0100097091674805,0.0014096580356014,0.05376270158662853
169,182.942863464355,0.0100097091674805,0.0014013026224423,0.05344403594364226
170,184.46768951416,0.0100097091674805,0.0013929809541326,0.053126657289572846
171,186.017700195313,0.0100097091674805,0.0013845132457658,0.05280370883927536
172,187.605178833008,0.0100097091674805,0.0013760135871994,0.05247954184589626
173,189.134315490723,0.0100097091674805,0.0013675447175052,0.052156549103935926
174,190.688087463379,0.0100097091674805,0.0013590596506233,0.051832938620263155
175,192.226715087891,0.0100097091674805,0.0013507517315348,0.051516084345339434
176,193.753807067871,0.0100097091674805,0.0013423176094071,0.051194416834748284
177,195.325714111328,0.0100097091674805,0.0013339171966842,0.05087403496125858
178,196.865249633789,0.0100097091674805,0.0013255203910408,0.05055379065754386
179,198.428985595703,0.0100097091674805,0.0013172935942607,0.050240030292170106
180,199.968688964844,0.0100097091674805,0.0013089880207285,0.04992326547400839
181,201.524726867676,0.0100097091674805,0.0013008694108948,0.04961363123168574
182,203.050498962402,0.0100097091674805,0.0012926342136942,0.04929955048414187
183,204.614707946777,0.0100097091674805,0.0012843831306941,0.048984863870865744
184,206.144981384277,0.0100097091674805,0.0012763161149045,0.048677197364778796
185,207.676162719727,0.0100097091674805,0.0012681705712646,0.04836653589872616
186,209.245147705078,0.0100097091674805,0.0012601542201816,0.04806080168503433
187,210.758834838867,0.0100097091674805,0.0012521745881541,0.04775646789298627
188,212.321357727051,0.0100097091674805,0.00124414613295,0.047450272042334096
189,213.823402404785,0.0100097091674805,0.0012361342327389,0.047144707579668196
190,215.375602722168,0.0100097091674805,0.0012281419518391,0.04683989137448894
191,216.928192138672,0.0100097091674805,0.0012201616110255,0.04653553055017162
192,218.506141662598,0.0100097091674805,0.0012121919150562,0.046231575707711664
193,220.027137756348,0.0100097091674805,0.0012044365683809,0.04593579589553394
194,221.562713623047,0.0100097091674805,0.0011965734618892,0.04563590625054158
195,223.09935760498,0.0100097091674805,0.0011887511399473,0.04533757208036995
196,224.574806213379,0.0100097091674805,0.00118140033463,0.045057221000381384
197,226.028305053711,0.0100097091674805,0.0011742208001864,0.04478340199032799
198,227.562278747559,0.0100097091674805,0.0011666594266549,0.04449502008599924
199,229.122901916504,0.0100097091674805,0.0011590240028341,0.04420381399062166
200,230.657218933105,0.0100097091674805,0.0011513354177705,0.04391058038789092
201,232.232582092285,0.0100097091674805,0.0011436921376002,0.043619074660572084
202,233.768692016602,0.0100097091674805,0.0011360641028106,0.043328150374164764
203,235.29076385498,0.0100097091674805,0.0011286465580867,0.043045253931605645
204,236.825576782227,0.0100097091674805,0.0011212543425297,0.04276332351371854
205,238.379570007324,0.0100097091674805,0.0011139329292194,0.04248409341035088
206,239.882110595703,0.0100097091674805,0.0011065716203054,0.042203341735522495
207,241.427154541016,0.0100097091674805,0.0010992920326726,0.041925706814363084
208,242.962669372559,0.0100097091674805,0.0010919691427275,0.041646420393878725
209,244.515655517578,0.0100097091674805,0.0010846843291417,0.04136858616101068
210,246.068748474121,0.0100097091674805,0.0010774711329607,0.04109348333183448
211,247.618621826172,0.0100097091674805,0.0010702267349607,0.04081719050193364
212,249.128295898438,0.0100097091674805,0.0010631693236834,0.040548029125987796
213,250.64616394043,0.0100097091674805,0.0010561265694568,0.040279426752738365
214,252.205299377441,0.0100097091674805,0.0010490760812249,0.040010529413611745
215,253.707801818848,0.0100097091674805,0.0010421790650862,0.03974748531983981
216,255.224418640137,0.0100097091674805,0.0010352722903311,0.0394840690439016
217,256.747665405273,0.0100097091674805,0.0010283609521332,0.03922047872361556
218,258.29020690918,0.0100097091674805,0.0010214389779125,0.03895648275791381
219,259.833419799805,0.0100097091674805,0.0010145686458363,0.038694456362940506
220,261.345550537109,0.0100097091674805,0.0010077654998311,0.038434992365793286
221,262.885238647461,0.0100097091674805,0.0010009134518086,0.038173663303150265
222,264.426971435547,0.0100097091674805,0.0009941946325543,0.03791741542922578
223,265.91162109375,0.0100097091674805,0.0009875154949199,0.03766268096567124
224,267.470306396484,0.0100097091674805,0.0009807650943842,0.037405228618771935
225,269.024703979492,0.0100097091674805,0.0009741604764986,0.037153336250900074
226,270.573928833008,0.0100097091674805,0.0009675248456522,0.03690026108513348
227,272.096633911133,0.0100097091674805,0.0009609917615613,0.03665109693216247
228,273.623062133789,0.0100097091674805,0.0009544974896949,0.0364034130318421
229,275.145614624023,0.0100097091674805,0.0009480890894124,0.03615900417286041
230,276.678253173828,0.0100097091674805,0.0009416873346666,0.0359148487668421
231,278.182708740234,0.0100097091674805,0.0009353306861129,0.03567241365800534
232,279.706787109375,0.0100097091674805,0.0009290342755832,0.035432275956643784
233,281.232620239258,0.0100097091674805,0.0009227122323986,0.0351911606559344
234,282.760406494141,0.0100097091674805,0.0009164581870153,0.03495263871149123
235,284.312072753906,0.0100097091674805,0.000910230895173,0.03471513711567506
236,285.859329223633,0.0100097091674805,0.0009040861842203,0.03448078505798245
237,287.343872070313,0.0100097091674805,0.0008979913350106,0.03424833466859649
238,288.858459472656,0.0100097091674805,0.0008918384832145,0.03401367212869947
239,290.401489257812,0.0100097091674805,0.0008857401920333,0.03378109046656369
240,291.923049926758,0.0100097091674805,0.0008797292511606,0.03355184024258581
241,293.463180541992,0.0100097091674805,0.0008737471549723,0.03332369012098779
242,294.972900390625,0.0100097091674805,0.0008678088497142,0.03309721013402746
243,296.510452270508,0.0100097091674805,0.0008619049877362,0.032872043773310454
244,298.030670166016,0.0100097091674805,0.000856073799613,0.03264964910804729
245,299.123672485352,0.0100097091674805,0.0008513512910636,0.03246953817938978
246,299.399475097656,0.0100097091674805,0.0008499256658414,0.032415166508062546
247,299.577865600586,0.0100097091674805,0.000848927428282,0.03237709490015255
248,299.694320678711,0.0100097091674805,0.0008481899128938,0.0323489669295881
249,299.773254394531,0.0100097091674805,0.0008476498106554,0.032328368064660565
250,299.827590942383,0.0100097091674805,0.0008472884358182,0.03231458565286804
251,299.866226196289,0.0100097091674805,0.0008470283324357,0.03230466561539664
252,299.896469116211,0.0100097091674805,0.000846798717652,0.032295908377269256
253,299.918838500977,0.0100097091674805,0.0008466457010956,0.03229007250555301
